time,temperature,pressure,lattice,pos1,pos2
0.000000,4.826617,43873.141057,4.040259,0.144371,0.135795,-0.223883
0.001000,78.445708,42573.400763,4.040511,0.143872,0.134899,-0.222466
0.002000,166.897777,40723.431820,4.040751,0.143104,0.133521,-0.220290
0.003000,265.494386,38464.672796,4.040978,0.142110,0.131735,-0.217472
0.004000,370.787042,35899.823225,4.041190,0.140914,0.129581,-0.214076
0.005000,479.890608,33116.145455,4.041386,0.139535,0.127087,-0.210149
0.006000,590.320863,30189.054631,4.041564,0.137987,0.124275,-0.205726
0.007000,699.945160,27190.828295,4.041725,0.136284,0.121163,-0.200840
0.008000,806.958832,24185.128606,4.041868,0.134436,0.117768,-0.195519
0.009000,909.861755,21225.816621,4.041993,0.132455,0.114105,-0.189788
0.010000,1007.434206,18359.134716,4.042102,0.130351,0.110191,-0.183672
0.011000,1098.712917,15625.909435,4.042194,0.128134,0.106038,-0.177194
0.012000,1182.964928,13061.770380,4.042271,0.125813,0.101663,-0.170378
0.013000,1259.663185,10696.761359,4.042335,0.123395,0.097078,-0.163246
0.014000,1328.463322,8556.985942,4.042385,0.120888,0.092300,-0.155819
0.015000,1389.177247,6662.524689,4.042424,0.118298,0.087341,-0.148119
0.016000,1441.745992,5033.346990,4.042454,0.115633,0.082218,-0.140167
0.017000,1486.218116,3680.067994,4.042476,0.112897,0.076945,-0.131984
0.018000,1522.726541,2610.363170,4.042491,0.110094,0.071538,-0.123591
0.019000,1551.466508,1827.196561,4.042502,0.107228,0.066013,-0.115008
0.020000,1572.683184,1328.712002,4.042510,0.104301,0.060385,-0.106255
0.021000,1586.661640,1106.603883,4.042517,0.101316,0.054671,-0.097354
0.022000,1593.719538,1149.338958,4.042523,0.098274,0.048887,-0.088325
0.023000,1594.202988,1453.671854,4.042532,0.095173,0.043052,-0.079188
0.024000,1588.483883,2011.276690,4.042544,0.092015,0.037180,-0.069963
0.025000,1576.959603,2804.343570,4.042560,0.088796,0.031291,-0.060673
0.026000,1560.050434,3817.584916,4.042583,0.085514,0.025402,-0.051336
0.027000,1538.196869,5039.028892,4.042613,0.082167,0.019529,-0.041976
0.028000,1511.863221,6458.177050,4.042651,0.078749,0.013691,-0.032612
0.029000,1481.540019,8055.770881,4.042698,0.075256,0.007905,-0.023267
0.030000,1447.739810,9805.813530,4.042756,0.071682,0.002189,-0.013962
0.031000,1410.999035,11687.776151,4.042826,0.068022,-0.003438,-0.004720
0.032000,1371.880224,13684.260961,4.042906,0.064267,-0.008960,0.004436
0.033000,1330.969302,15766.944637,4.043000,0.060412,-0.014356,0.013485
0.034000,1288.873407,17917.852264,4.043105,0.056447,-0.019610,0.022402
0.035000,1246.216374,20115.553846,4.043224,0.052366,-0.024702,0.031164
0.036000,1203.632899,22329.404821,4.043356,0.048158,-0.029614,0.039747
0.037000,1161.761594,24539.802283,4.043501,0.043815,-0.034327,0.048126
0.038000,1121.235279,26723.073846,4.043659,0.039328,-0.038822,0.056278
0.039000,1082.669784,28857.424036,4.043830,0.034688,-0.043080,0.064178
0.040000,1046.650925,30921.075486,4.044013,0.029885,-0.047083,0.071800
0.041000,1013.721349,32888.960719,4.044207,0.024909,-0.050811,0.079118
0.042000,984.369203,34742.730569,4.044413,0.019753,-0.054245,0.086107
0.043000,959.016092,36462.454796,4.044628,0.014409,-0.057366,0.092742
0.044000,938.005895,38035.293415,4.044853,0.008868,-0.060155,0.098996
0.045000,921.595789,39451.431671,4.045086,0.003125,-0.062593,0.104843
0.046000,909.951160,40701.182975,4.045327,-0.002825,-0.064662,0.110259
0.047000,903.141732,41775.668018,4.045574,-0.008985,-0.066344,0.115218
0.048000,901.139981,42673.596127,4.045826,-0.015356,-0.067621,0.119698
0.049000,903.824136,43394.165458,4.046083,-0.021938,-0.068478,0.123676
0.050000,910.983412,43938.657793,4.046343,-0.028726,-0.068900,0.127132
0.051000,922.324429,44316.429891,4.046605,-0.035716,-0.068874,0.130049
0.052000,937.479195,44538.186973,4.046869,-0.042899,-0.068389,0.132413
0.053000,956.016158,44614.394520,4.047133,-0.050266,-0.067437,0.134213
0.054000,977.452502,44561.022581,4.047396,-0.057804,-0.066011,0.135441
0.055000,1001.265657,44392.232084,4.047659,-0.065499,-0.064109,0.136097
0.056000,1026.907299,44125.224488,4.047920,-0.073336,-0.061730,0.136180
0.057000,1053.817417,43779.520027,4.048179,-0.081298,-0.058877,0.135697
0.058000,1081.437748,43371.517952,4.048436,-0.089365,-0.055556,0.134659
0.059000,1109.225008,42922.409936,4.048690,-0.097520,-0.051775,0.133080
0.060000,1136.663759,42447.962051,4.048941,-0.105743,-0.047545,0.130979
0.061000,1163.278583,41969.765056,4.049189,-0.114013,-0.042881,0.128379
0.062000,1188.643467,41505.700576,4.049435,-0.122310,-0.037799,0.125306
0.063000,1212.390034,41070.268923,4.049678,-0.130616,-0.032318,0.121788
0.064000,1234.211797,40679.525692,4.049919,-0.138909,-0.026460,0.117857
0.065000,1253.868155,40347.752439,4.050158,-0.147172,-0.020248,0.113548
0.066000,1271.188088,40077.910530,4.050395,-0.155386,-0.013708,0.108895
0.067000,1286.068278,39882.560137,4.050631,-0.163533,-0.006866,0.103937
0.068000,1298.466829,39771.885191,4.050867,-0.171598,0.000250,0.098712
0.069000,1308.398331,39748.886400,4.051102,-0.179563,0.007609,0.093260
0.070000,1315.928832,39813.675646,4.051338,-0.187414,0.015182,0.087622
0.071000,1321.168450,39964.633189,4.051575,-0.195138,0.022937,0.081839
0.072000,1324.262275,40200.374827,4.051813,-0.202722,0.030840,0.075952
0.073000,1325.383194,40517.941909,4.052053,-0.210154,0.038860,0.070002
0.074000,1324.723373,40912.694478,4.052295,-0.217423,0.046961,0.064029
0.075000,1322.482259,41375.640221,4.052540,-0.224519,0.055109,0.058075
0.076000,1318.859844,41905.877118,4.052788,-0.231433,0.063271,0.052179
0.077000,1314.052236,42497.920816,4.053040,-0.238157,0.071411,0.046378
0.078000,1308.247362,43138.320311,4.053296,-0.244683,0.079495,0.040711
0.079000,1301.623497,43822.728901,4.053556,-0.251004,0.087490,0.035212
0.080000,1294.349661,44539.188451,4.053819,-0.257115,0.095362,0.029914
0.081000,1286.584403,45285.237281,4.054088,-0.263009,0.103079,0.024849
0.082000,1278.475693,46055.906560,4.054361,-0.268683,0.110610,0.020046
0.083000,1270.163333,46845.298798,4.054638,-0.274131,0.117926,0.015530
0.084000,1261.783781,47642.646394,4.054921,-0.279350,0.124996,0.011326
0.085000,1253.473359,48442.360977,4.055208,-0.284336,0.131794,0.007453
0.086000,1245.367881,49237.416218,4.055500,-0.289084,0.138294,0.003929
0.087000,1237.603073,50021.413824,4.055796,-0.293592,0.144472,0.000768
0.088000,1230.315765,50785.897071,4.056097,-0.297855,0.150306,-0.002020
0.089000,1223.644516,51528.084716,4.056403,-0.301870,0.155775,-0.004426
0.090000,1217.725462,52239.622621,4.056713,-0.305631,0.160862,-0.006446
0.091000,1212.686113,52914.062575,4.057027,-0.309134,0.165550,-0.008079
0.092000,1208.645546,53547.322269,4.057344,-0.312375,0.169823,-0.009327
0.093000,1205.714462,54132.889854,4.057665,-0.315345,0.173670,-0.010194
0.094000,1203.994188,54668.220505,4.057990,-0.318039,0.177080,-0.010686
0.095000,1203.576812,55152.151828,4.058317,-0.320450,0.180044,-0.010814
0.096000,1204.546743,55577.710730,4.058646,-0.322568,0.182554,-0.010588
0.097000,1206.985692,55940.634167,4.058978,-0.324386,0.184605,-0.010022
0.098000,1210.974004,56230.691152,4.059312,-0.325893,0.186193,-0.009130
0.099000,1216.590441,56442.052971,4.059647,-0.327079,0.187316,-0.007929
0.100000,1223.914880,56577.251631,4.059983,-0.327935,0.187971,-0.006435
0.101000,1233.025692,56635.735283,4.060319,-0.328448,0.188158,-0.004667
0.102000,1243.991790,56614.411355,4.060655,-0.328607,0.187879,-0.002642
0.103000,1256.864571,56515.484746,4.060990,-0.328402,0.187135,-0.000379
0.104000,1271.669074,56340.173561,4.061325,-0.327822,0.185929,0.002104
0.105000,1288.395046,56089.946845,4.061658,-0.326855,0.184266,0.004788
0.106000,1306.989596,55767.719838,4.061989,-0.325493,0.182150,0.007656
0.107000,1327.350678,55373.697305,4.062318,-0.323725,0.179587,0.010691
0.108000,1349.323807,54902.476422,4.062644,-0.321543,0.176586,0.013876
0.109000,1372.700131,54361.438280,4.062967,-0.318942,0.173153,0.017195
0.110000,1397.216256,53754.115369,4.063286,-0.315915,0.169300,0.020633
0.111000,1422.560681,53089.673131,4.063601,-0.312459,0.165038,0.024175
0.112000,1448.384561,52376.078927,4.063912,-0.308571,0.160379,0.027810
0.113000,1474.314409,51628.848499,4.064219,-0.304252,0.155336,0.031522
0.114000,1499.967721,50863.857367,4.064521,-0.299502,0.149925,0.035303
0.115000,1524.970838,50091.003193,4.064819,-0.294325,0.144162,0.039139
0.116000,1548.976026,49325.760103,4.065112,-0.288724,0.138065,0.043023
0.117000,1571.673585,48576.701379,4.065401,-0.282706,0.131652,0.046944
0.118000,1592.801619,47859.741571,4.065685,-0.276277,0.124943,0.050894
0.119000,1612.153555,47187.811715,4.065966,-0.269446,0.117960,0.054866
0.120000,1629.577254,46567.919189,4.066242,-0.262221,0.110723,0.058852
0.121000,1644.971937,46008.730572,4.066516,-0.254612,0.103256,0.062846
0.122000,1658.285397,45515.583430,4.066786,-0.246628,0.095581,0.066841
0.123000,1669.507089,45092.612972,4.067054,-0.238281,0.087724,0.070831
0.124000,1678.662294,44738.124734,4.067320,-0.229579,0.079708,0.074811
0.125000,1685.810750,44451.959115,4.067585,-0.220534,0.071559,0.078776
0.126000,1691.038600,44235.991323,4.067848,-0.211155,0.063303,0.082718
0.127000,1694.450276,44086.147513,4.068110,-0.201452,0.054967,0.086635
0.128000,1696.166138,44003.243493,4.068372,-0.191434,0.046578,0.090519
0.129000,1696.313952,43976.776519,4.068633,-0.181109,0.038165,0.094368
0.130000,1695.020693,44002.531504,4.068895,-0.170485,0.029755,0.098175
0.131000,1692.406968,44076.058118,4.069157,-0.159570,0.021377,0.101936
0.132000,1688.586050,44195.863555,4.069420,-0.148370,0.013060,0.105647
0.133000,1683.662253,44353.058322,4.069684,-0.136891,0.004832,0.109304
0.134000,1677.728216,44548.797246,4.069949,-0.125137,-0.003279,0.112901
0.135000,1670.864609,44778.831529,4.070215,-0.113113,-0.011246,0.116435
0.136000,1663.139987,45039.236742,4.070483,-0.100824,-0.019042,0.119902
0.137000,1654.615355,45331.074677,4.070753,-0.088274,-0.026640,0.123298
0.138000,1645.349899,45648.026627,4.071025,-0.075467,-0.034017,0.126618
0.139000,1635.404856,45984.789996,4.071298,-0.062407,-0.041148,0.129859
0.140000,1624.848810,46345.295283,4.071574,-0.049099,-0.048011,0.133018
0.141000,1613.764569,46727.447783,4.071852,-0.035549,-0.054586,0.136092
0.142000,1602.256612,47128.946844,4.072133,-0.021763,-0.060855,0.139076
0.143000,1590.455893,47544.829513,4.072416,-0.007747,-0.066799,0.141968
0.144000,1578.520332,47972.073125,4.072701,0.006488,-0.072405,0.144767
0.145000,1566.636205,48405.877195,4.072990,0.020934,-0.077659,0.147468
0.146000,1555.015496,48845.909725,4.073280,0.035579,-0.082552,0.150070
0.147000,1543.887286,49288.775537,4.073574,0.050406,-0.087075,0.152572
0.148000,1533.491047,49727.781238,4.073870,0.065402,-0.091223,0.154973
0.149000,1524.069400,50155.919672,4.074169,0.080545,-0.094990,0.157272
0.150000,1515.857157,50569.032454,4.074470,0.095813,-0.098377,0.159470
0.151000,1509.071257,50961.873499,4.074774,0.111183,-0.101384,0.161568
0.152000,1503.903642,51328.040105,4.075079,0.126627,-0.104012,0.163567
0.153000,1500.514347,51662.348321,4.075387,0.142113,-0.106267,0.165470
0.154000,1499.020758,51957.270866,4.075697,0.157610,-0.108153,0.167282
0.155000,1499.495682,52210.712217,4.076008,0.173081,-0.109680,0.169007
0.156000,1501.971609,52419.978544,4.076320,0.188490,-0.110855,0.170651
0.157000,1506.438855,52586.385434,4.076633,0.203796,-0.111689,0.172221
0.158000,1512.846893,52713.672012,4.076947,0.218959,-0.112193,0.173725
0.159000,1521.109539,52799.108202,4.077262,0.233937,-0.112379,0.175171
0.160000,1531.108874,52840.217735,4.077577,0.248689,-0.112260,0.176568
0.161000,1542.699298,52838.725653,4.077892,0.263170,-0.111848,0.177927
0.162000,1555.711066,52803.579797,4.078207,0.277340,-0.111158,0.179259
0.163000,1569.953152,52739.287514,4.078521,0.291157,-0.110204,0.180574
0.164000,1585.216571,52656.421176,4.078835,0.304582,-0.109000,0.181884
0.165000,1601.274450,52555.058885,4.079149,0.317579,-0.107559,0.183199
0.166000,1617.881035,52443.990800,4.079461,0.330112,-0.105898,0.184529
0.167000,1634.772983,52329.930401,4.079773,0.342150,-0.104030,0.185885
0.168000,1651.672156,52210.061326,4.080085,0.353667,-0.101969,0.187276
0.169000,1668.289348,52089.931716,4.080395,0.364637,-0.099732,0.188709
0.170000,1684.331126,51974.730103,4.080705,0.375042,-0.097332,0.190191
0.171000,1699.508543,51867.871528,4.081015,0.384865,-0.094785,0.191726
0.172000,1713.544970,51772.876900,4.081324,0.394098,-0.092106,0.193318
0.173000,1726.183837,51697.130094,4.081632,0.402733,-0.089311,0.194967
0.174000,1737.197843,51642.982786,4.081940,0.410769,-0.086415,0.196672
0.175000,1746.399553,51615.832626,4.082248,0.418210,-0.083435,0.198430
0.176000,1753.652167,51615.836015,4.082556,0.425062,-0.080386,0.200234
0.177000,1758.877835,51639.053781,4.082865,0.431337,-0.077284,0.202078
0.178000,1762.060132,51682.909605,4.083173,0.437049,-0.074147,0.203951
0.179000,1763.244877,51743.542937,4.083482,0.442217,-0.070991,0.205843
0.180000,1762.538158,51816.161535,4.083791,0.446861,-0.067833,0.207741
0.181000,1760.100011,51899.785444,4.084101,0.451004,-0.064689,0.209631
0.182000,1756.135226,51987.369118,4.084411,0.454672,-0.061575,0.211497
0.183000,1750.883431,52067.863951,4.084722,0.457890,-0.058508,0.213325
0.184000,1744.610231,52138.423873,4.085034,0.460687,-0.055504,0.215097
0.185000,1737.596702,52191.598890,4.085345,0.463089,-0.052578,0.216799
0.186000,1730.132393,52222.898527,4.085657,0.465125,-0.049745,0.218413
0.187000,1722.506956,52221.054489,4.085969,0.466824,-0.047019,0.219924
0.188000,1715.002218,52179.700950,4.086281,0.468212,-0.044414,0.221317
0.189000,1707.890263,52102.830008,4.086592,0.469317,-0.041942,0.222577
0.190000,1701.428245,51984.332534,4.086903,0.470164,-0.039616,0.223692
0.191000,1695.849468,51823.349580,4.087212,0.470779,-0.037445,0.224649
0.192000,1691.353021,51620.895985,4.087521,0.471185,-0.035440,0.225437
0.193000,1688.094094,51382.704234,4.087828,0.471403,-0.033609,0.226047
0.194000,1686.176637,51113.925754,4.088133,0.471457,-0.031960,0.226469
0.195000,1685.647733,50821.406846,4.088437,0.471363,-0.030499,0.226697
0.196000,1686.493996,50510.912553,4.088739,0.471141,-0.029231,0.226726
0.197000,1688.642434,50183.922613,4.089039,0.470807,-0.028161,0.226551
0.198000,1691.966261,49852.798852,4.089337,0.470375,-0.027292,0.226170
0.199000,1696.290752,49528.753080,4.089633,0.469859,-0.026625,0.225581
0.200000,1701.400144,49214.756746,4.089927,0.469270,-0.026162,0.224785
0.201000,1707.047027,48915.559576,4.090219,0.468618,-0.025902,0.223782
0.202000,1712.959585,48645.751253,4.090510,0.467914,-0.025844,0.222575
0.203000,1718.855756,48412.821841,4.090800,0.467165,-0.025986,0.221168
0.204000,1724.460299,48222.804337,4.091088,0.466377,-0.026325,0.219567
0.205000,1729.518064,48082.111184,4.091376,0.465556,-0.026857,0.217777
0.206000,1733.804401,47999.915179,4.091663,0.464707,-0.027576,0.215805
0.207000,1737.135581,47977.922493,4.091950,0.463834,-0.028476,0.213660
0.208000,1739.379752,48017.770104,4.092237,0.462939,-0.029551,0.211351
0.209000,1740.460898,48120.509395,4.092525,0.462026,-0.030793,0.208887
0.210000,1740.360037,48283.167724,4.092814,0.461097,-0.032193,0.206279
0.211000,1739.115728,48503.239241,4.093104,0.460151,-0.033741,0.203538
0.212000,1736.822555,48772.166789,4.093396,0.459191,-0.035427,0.200677
0.213000,1733.627681,49080.285671,4.093689,0.458218,-0.037239,0.197707
0.214000,1729.724044,49414.350772,4.093985,0.457230,-0.039165,0.194642
0.215000,1725.343718,49764.218267,4.094283,0.456230,-0.041193,0.191494
0.216000,1720.754128,50117.924580,4.094583,0.455215,-0.043308,0.188279
0.217000,1716.250887,50465.810053,4.094885,0.454187,-0.045496,0.185009
0.218000,1712.149381,50790.771828,4.095189,0.453144,-0.047742,0.181700
0.219000,1708.774387,51077.047177,4.095495,0.452087,-0.050031,0.178366
0.220000,1706.445098,51307.398253,4.095802,0.451013,-0.052346,0.175021
0.221000,1705.462426,51471.161823,4.096110,0.449922,-0.054671,0.171681
0.222000,1706.093953,51556.293497,4.096419,0.448813,-0.056991,0.168361
0.223000,1708.558923,51553.174917,4.096728,0.447682,-0.059288,0.165075
0.224000,1713.017020,51456.525298,4.097036,0.446528,-0.061548,0.161837
0.225000,1719.558208,51256.852611,4.097343,0.445348,-0.063753,0.158662
0.226000,1728.200122,50946.789116,4.097648,0.444138,-0.065890,0.155564
0.227000,1738.887736,50535.338390,4.097951,0.442894,-0.067944,0.152557
0.228000,1751.492394,50027.629465,4.098250,0.441612,-0.069901,0.149652
0.229000,1765.817257,49427.463062,4.098546,0.440285,-0.071749,0.146861
0.230000,1781.604321,48741.060445,4.098839,0.438907,-0.073478,0.144196
0.231000,1798.544400,47980.649795,4.099126,0.437471,-0.075078,0.141666
0.232000,1816.291372,47157.232813,4.099409,0.435967,-0.076542,0.139280
0.233000,1834.474695,46282.429491,4.099686,0.434387,-0.077865,0.137045
0.234000,1852.714359,45378.725130,4.099958,0.432719,-0.079045,0.134969
0.235000,1870.636546,44461.429967,4.100224,0.430951,-0.080079,0.133055
0.236000,1887.889408,43547.057242,4.100485,0.429069,-0.080971,0.131308
0.237000,1904.157264,42651.351892,4.100741,0.427061,-0.081726,0.129729
0.238000,1919.172364,41789.257722,4.100992,0.424909,-0.082350,0.128321
0.239000,1932.722502,40970.850512,4.101237,0.422596,-0.082855,0.127083
0.240000,1944.652084,40210.212999,4.101478,0.420104,-0.083254,0.126015
0.241000,1954.859122,39517.334524,4.101715,0.417415,-0.083562,0.125114
0.242000,1963.291965,38896.810332,4.101948,0.414506,-0.083797,0.124377
0.243000,1969.942859,38360.434633,4.102178,0.411358,-0.083979,0.123801
0.244000,1974.836915,37911.024902,4.102406,0.407947,-0.084132,0.123382
0.245000,1978.025614,37553.550327,4.102631,0.404251,-0.084277,0.123115
0.246000,1979.578356,37284.845749,4.102855,0.400246,-0.084441,0.122996
0.247000,1979.574261,37102.543724,4.103077,0.395910,-0.084649,0.123019
0.248000,1978.099578,37010.022270,4.103299,0.391218,-0.084926,0.123179
0.249000,1975.244458,37005.779287,4.103521,0.386148,-0.085298,0.123472
0.250000,1971.103131,37084.712387,4.103744,0.380676,-0.085791,0.123893
0.251000,1965.775512,37248.973769,4.103967,0.374779,-0.086426,0.124438
0.252000,1959.363758,37496.418899,4.104192,0.368437,-0.087227,0.125102
0.253000,1951.970454,37820.891912,4.104419,0.361629,-0.088211,0.125883
0.254000,1943.700740,38211.524059,4.104648,0.354336,-0.089397,0.126778
0.255000,1934.663131,38664.075430,4.104880,0.346540,-0.090796,0.127784
0.256000,1924.967817,39168.734316,4.105115,0.338227,-0.092419,0.128900
0.257000,1914.723963,39723.598997,4.105354,0.329383,-0.094271,0.130126
0.258000,1904.039265,40321.635488,4.105596,0.319996,-0.096354,0.131459
0.259000,1893.020401,40949.562342,4.105841,0.310059,-0.098666,0.132901
0.260000,1881.774829,41601.820131,4.106091,0.299565,-0.101200,0.134451
0.261000,1870.412677,42268.193332,4.106345,0.288512,-0.103945,0.136110
0.262000,1859.048288,42935.343884,4.106603,0.276900,-0.106888,0.137879
0.263000,1847.804492,43590.797016,4.106864,0.264732,-0.110010,0.139758
0.264000,1836.813403,44224.811270,4.107130,0.252015,-0.113288,0.141748
0.265000,1826.214752,44827.007408,4.107399,0.238759,-0.116699,0.143850
0.266000,1816.150098,45389.300010,4.107671,0.224976,-0.120216,0.146064
0.267000,1806.750376,45914.384465,4.107947,0.210683,-0.123808,0.148389
0.268000,1798.127571,46398.941990,4.108226,0.195899,-0.127444,0.150824
0.269000,1790.368760,46845.821375,4.108507,0.180648,-0.131091,0.153369
0.270000,1783.535776,47259.305065,4.108791,0.164955,-0.134716,0.156021
0.271000,1777.672909,47646.195758,4.109077,0.148851,-0.138283,0.158777
0.272000,1772.815932,48011.291321,4.109366,0.132367,-0.141757,0.161634
0.273000,1769.003175,48361.296107,4.109656,0.115540,-0.145100,0.164586
0.274000,1766.284644,48692.290546,4.109949,0.098410,-0.148278,0.167630
0.275000,1764.726282,48996.620713,4.110243,0.081020,-0.151253,0.170758
0.276000,1764.408419,49267.654915,4.110539,0.063415,-0.153988,0.173964
0.277000,1765.418171,49493.305547,4.110836,0.045645,-0.156446,0.177240
0.278000,1767.835649,49658.070814,4.111135,0.027763,-0.158591,0.180576
0.279000,1771.723101,49748.582527,4.111434,0.009825,-0.160385,0.183963
