time,temperature,pressure,lattice,pos1,pos2
0.000000,4.939530,52950.182806,4.040313,-0.259202,-0.175487,-0.162662
0.001000,44.993146,51834.295414,4.040619,-0.258374,-0.174077,-0.161163
0.002000,97.517862,50233.641620,4.040916,-0.257060,-0.171859,-0.158806
0.003000,159.638559,48241.692408,4.041201,-0.255312,-0.168942,-0.155703
0.004000,229.091651,45930.478364,4.041472,-0.253163,-0.165394,-0.151927
0.005000,303.852676,43364.788963,4.041728,-0.250634,-0.161274,-0.147537
0.006000,382.058311,40605.862365,4.041968,-0.247743,-0.156634,-0.142589
0.007000,461.997400,37710.003354,4.042191,-0.244505,-0.151523,-0.137132
0.008000,542.119708,34731.699754,4.042396,-0.240935,-0.145989,-0.131217
0.009000,621.045524,31717.823159,4.042584,-0.237048,-0.140076,-0.124891
0.010000,697.571588,28712.230385,4.042753,-0.232856,-0.133830,-0.118200
0.011000,770.672022,25753.533483,4.042905,-0.228374,-0.127292,-0.111190
0.012000,839.494893,22877.481419,4.043041,-0.223614,-0.120501,-0.103903
0.013000,903.355515,20114.080860,4.043159,-0.218593,-0.113495,-0.096383
0.014000,961.726334,17488.027770,4.043263,-0.213323,-0.106310,-0.088669
0.015000,1014.224499,15024.607201,4.043352,-0.207818,-0.098980,-0.080798
0.016000,1060.598476,12743.484920,4.043427,-0.202094,-0.091534,-0.072808
0.017000,1100.713577,10663.203707,4.043490,-0.196165,-0.084002,-0.064731
0.018000,1134.535114,8794.870631,4.043542,-0.190044,-0.076410,-0.056599
0.019000,1162.112512,7144.364565,4.043584,-0.183746,-0.068783,-0.048442
0.020000,1183.566435,5713.694396,4.043618,-0.177286,-0.061141,-0.040287
0.021000,1199.077300,4511.546411,4.043645,-0.170678,-0.053507,-0.032160
0.022000,1208.872184,3534.479778,4.043666,-0.163934,-0.045897,-0.024081
0.023000,1213.213584,2777.661463,4.043682,-0.157070,-0.038331,-0.016074
0.024000,1212.394248,2241.824371,4.043695,-0.150098,-0.030821,-0.008156
0.025000,1206.730520,1921.157384,4.043707,-0.143031,-0.023383,-0.000345
0.026000,1196.556803,1803.488847,4.043717,-0.135882,-0.016027,0.007345
0.027000,1182.221764,1881.174486,4.043728,-0.128664,-0.008765,0.014899
0.028000,1164.085052,2141.978652,4.043741,-0.121387,-0.001606,0.022307
0.029000,1142.517256,2571.864936,4.043756,-0.114062,0.005441,0.029557
0.030000,1117.896849,3153.930174,4.043775,-0.106702,0.012369,0.036641
0.031000,1090.608999,3876.864212,4.043798,-0.099316,0.019172,0.043550
0.032000,1061.046100,4728.560237,4.043826,-0.091914,0.025845,0.050280
0.033000,1029.606287,5693.088136,4.043859,-0.084507,0.032382,0.056823
0.034000,996.691599,6754.946624,4.043899,-0.077104,0.038779,0.063178
0.035000,962.705195,7896.793664,4.043946,-0.069712,0.045033,0.069340
0.036000,928.049008,9102.424581,4.044000,-0.062340,0.051140,0.075308
0.037000,893.121734,10355.967766,4.044061,-0.054996,0.057098,0.081080
0.038000,858.315063,11643.344292,4.044130,-0.047686,0.062905,0.086656
0.039000,824.010118,12945.070808,4.044206,-0.040415,0.068558,0.092036
0.040000,790.574238,14246.916145,4.044291,-0.033191,0.074056,0.097222
0.041000,758.355925,15534.614696,4.044382,-0.026017,0.079397,0.102214
0.042000,727.681452,16793.501588,4.044482,-0.018899,0.084581,0.107016
0.043000,698.850420,18011.689331,4.044588,-0.011841,0.089606,0.111629
0.044000,672.130878,19176.770608,4.044702,-0.004847,0.094472,0.116056
0.045000,647.756846,20278.194466,4.044821,0.002081,0.099177,0.120300
0.046000,625.925080,21307.096619,4.044947,0.008937,0.103721,0.124366
0.047000,606.791675,22253.559709,4.045079,0.015720,0.108102,0.128255
0.048000,590.470803,23110.068827,4.045216,0.022425,0.112320,0.131973
0.049000,577.033555,23868.542767,4.045357,0.029050,0.116373,0.135522
0.050000,566.506224,24525.239345,4.045502,0.035591,0.120261,0.138907
0.051000,558.870759,25077.654247,4.045650,0.042045,0.123982,0.142131
0.052000,554.066863,25524.383836,4.045801,0.048407,0.127534,0.145198
0.053000,551.993810,25865.833432,4.045954,0.054675,0.130915,0.148111
0.054000,552.512515,26103.963687,4.046109,0.060843,0.134124,0.150875
0.055000,555.449364,26241.615432,4.046264,0.066907,0.137159,0.153493
0.056000,560.599769,26284.056669,4.046419,0.072862,0.140017,0.155969
0.057000,567.732830,26239.586542,4.046574,0.078703,0.142697,0.158307
0.058000,576.597146,26114.735383,4.046729,0.084425,0.145196,0.160510
0.059000,586.925527,25918.449604,4.046882,0.090023,0.147513,0.162583
0.060000,598.441468,25659.722057,4.047034,0.095491,0.149646,0.164529
0.061000,610.864448,25346.726546,4.047184,0.100825,0.151593,0.166354
0.062000,623.915129,24988.909785,4.047332,0.106019,0.153353,0.168061
0.063000,637.321263,24596.187816,4.047477,0.111069,0.154925,0.169654
0.064000,650.820337,24181.013981,4.047621,0.115971,0.156309,0.171139
0.065000,664.163059,23752.110808,4.047761,0.120721,0.157503,0.172521
0.066000,677.117092,23320.672845,4.047899,0.125314,0.158508,0.173803
0.067000,689.469831,22895.248070,4.048035,0.129748,0.159324,0.174991
0.068000,701.031185,22484.265882,4.048168,0.134019,0.159951,0.176089
0.069000,711.634697,22097.338739,4.048298,0.138125,0.160389,0.177103
0.070000,721.138138,21741.160735,4.048427,0.142064,0.160641,0.178037
0.071000,729.423157,21425.320882,4.048554,0.145834,0.160707,0.178896
0.072000,736.394819,21154.754979,4.048679,0.149434,0.160588,0.179685
0.073000,741.982385,20935.668827,4.048803,0.152863,0.160287,0.180409
0.074000,746.138487,20769.304020,4.048926,0.156121,0.159806,0.181071
0.075000,748.837332,20659.111325,4.049048,0.159208,0.159147,0.181678
0.076000,750.074227,20609.148284,4.049170,0.162124,0.158314,0.182232
0.077000,749.865486,20616.656104,4.049292,0.164869,0.157308,0.182738
0.078000,748.247225,20678.163863,4.049415,0.167446,0.156134,0.183200
0.079000,745.273724,20795.533151,4.049538,0.169856,0.154795,0.183622
0.080000,741.016025,20965.482908,4.049662,0.172100,0.153295,0.184008
0.081000,735.561019,21184.478668,4.049787,0.174182,0.151637,0.184360
0.082000,729.009520,21448.956643,4.049914,0.176103,0.149827,0.184683
0.083000,721.474137,21754.269074,4.050043,0.177868,0.147869,0.184979
0.084000,713.079210,22093.063211,4.050174,0.179478,0.145768,0.185251
0.085000,703.960350,22459.977622,4.050307,0.180940,0.143529,0.185501
0.086000,694.262419,22845.771438,4.050442,0.182255,0.141157,0.185732
0.087000,684.136621,23246.159747,4.050580,0.183429,0.138659,0.185946
0.088000,673.737809,23653.299171,4.050720,0.184467,0.136040,0.186145
0.089000,663.224108,24059.597160,4.050862,0.185373,0.133306,0.186330
0.090000,652.755306,24456.857483,4.051007,0.186153,0.130465,0.186503
0.091000,642.488859,24839.312615,4.051154,0.186812,0.127523,0.186666
0.092000,632.578603,25201.137753,4.051303,0.187356,0.124487,0.186818
0.093000,623.172957,25533.780123,4.051455,0.187791,0.121364,0.186961
0.094000,614.412272,25835.874548,4.051608,0.188123,0.118164,0.187097
0.095000,606.427706,26100.436306,4.051762,0.188358,0.114892,0.187224
0.096000,599.339166,26322.714998,4.051918,0.188504,0.111559,0.187344
0.097000,593.253855,26500.359751,4.052075,0.188567,0.108172,0.187456
0.098000,588.265697,26629.050054,4.052233,0.188553,0.104742,0.187561
0.099000,584.453910,26707.202508,4.052391,0.188470,0.101275,0.187658
0.100000,581.882772,26732.976482,4.052549,0.188325,0.097784,0.187747
0.101000,580.601688,26706.129190,4.052708,0.188125,0.094276,0.187829
0.102000,580.644886,26625.186448,4.052865,0.187877,0.090763,0.187901
0.103000,582.031837,26487.985002,4.053022,0.187588,0.087254,0.187963
0.104000,584.768274,26298.952585,4.053178,0.187265,0.083760,0.188016
0.105000,588.846154,26061.220818,4.053333,0.186916,0.080290,0.188057
0.106000,594.243145,25774.919253,4.053485,0.186545,0.076854,0.188085
0.107000,600.923544,25442.258915,4.053636,0.186160,0.073464,0.188101
0.108000,608.838730,25065.022328,4.053785,0.185767,0.070128,0.188101
0.109000,617.927060,24646.859493,4.053931,0.185371,0.066857,0.188086
0.110000,628.114015,24189.778640,4.054074,0.184977,0.063659,0.188053
0.111000,639.312417,23698.419926,4.054214,0.184590,0.060543,0.188001
0.112000,651.423580,23177.005791,4.054352,0.184213,0.057517,0.187928
0.113000,664.338029,22631.440036,4.054486,0.183849,0.054589,0.187833
0.114000,677.934526,22065.784584,4.054617,0.183503,0.051767,0.187714
0.115000,692.081883,21484.119462,4.054744,0.183174,0.049056,0.187568
0.116000,706.642122,20888.871455,4.054868,0.182864,0.046461,0.187395
0.117000,721.471247,20285.538311,4.054988,0.182574,0.043988,0.187192
0.118000,736.420283,19681.395523,4.055105,0.182302,0.041640,0.186956
0.119000,751.336671,19079.255147,4.055218,0.182047,0.039420,0.186686
0.120000,766.066725,18484.588165,4.055328,0.181808,0.037329,0.186380
0.121000,780.459786,17899.648351,4.055434,0.181580,0.035370,0.186034
0.122000,794.369724,17332.871397,4.055536,0.181360,0.033541,0.185648
0.123000,807.655200,16783.446192,4.055636,0.181143,0.031843,0.185218
0.124000,820.182813,16256.966130,4.055732,0.180925,0.030274,0.184742
0.125000,831.830069,15756.462575,4.055826,0.180698,0.028831,0.184218
0.126000,842.486151,15285.897415,4.055916,0.180457,0.027512,0.183644
0.127000,852.052831,14852.238355,4.056004,0.180194,0.026312,0.183017
0.128000,860.445775,14456.529473,4.056090,0.179902,0.025228,0.182336
0.129000,867.596586,14102.158515,4.056174,0.179574,0.024253,0.181598
0.130000,873.455603,13789.335712,4.056255,0.179202,0.023383,0.180802
0.131000,877.990285,13519.311822,4.056336,0.178777,0.022611,0.179946
0.132000,881.183029,13297.363980,4.056415,0.178291,0.021931,0.179029
0.133000,883.032179,13122.738729,4.056492,0.177737,0.021338,0.178049
0.134000,883.552127,12993.892878,4.056569,0.177107,0.020823,0.177006
0.135000,882.773079,12911.666049,4.056646,0.176393,0.020380,0.175898
0.136000,880.739920,12875.358577,4.056722,0.175588,0.020003,0.174726
0.137000,877.511183,12882.016477,4.056799,0.174684,0.019685,0.173489
0.138000,873.157611,12931.289266,4.056875,0.173676,0.019419,0.172186
0.139000,867.760698,13017.492524,4.056953,0.172557,0.019199,0.170818
0.140000,861.413830,13136.908258,4.057030,0.171322,0.019019,0.169386
0.141000,854.218842,13286.921471,4.057109,0.169965,0.018874,0.167890
0.142000,846.283332,13465.947076,4.057189,0.168482,0.018757,0.166331
0.143000,837.720906,13671.125182,4.057270,0.166869,0.018663,0.164711
0.144000,828.648683,13897.251078,4.057353,0.165124,0.018588,0.163030
0.145000,819.185976,14141.142017,4.057437,0.163243,0.018527,0.161291
0.146000,809.453440,14397.936485,4.057522,0.161224,0.018477,0.159495
0.147000,799.571101,14661.416269,4.057609,0.159066,0.018434,0.157645
0.148000,789.657243,14928.181601,4.057697,0.156768,0.018397,0.155742
0.149000,779.827560,15189.562952,4.057788,0.154330,0.018362,0.153790
0.150000,770.193227,15444.737920,4.057879,0.151752,0.018327,0.151791
0.151000,760.860239,15690.942972,4.057972,0.149035,0.018293,0.149748
0.152000,751.929418,15924.869671,4.058067,0.146180,0.018257,0.147663
0.153000,743.496273,16141.716299,4.058162,0.143188,0.018220,0.145541
0.154000,735.649861,16340.266389,4.058259,0.140062,0.018181,0.143384
0.155000,728.470483,16520.735345,4.058357,0.136804,0.018142,0.141196
0.156000,722.029108,16681.638592,4.058456,0.133417,0.018102,0.138980
0.157000,716.387521,16820.485365,4.058556,0.129905,0.018063,0.136740
0.158000,711.596844,16934.777755,4.058657,0.126270,0.018026,0.134481
0.159000,707.696269,17023.654597,4.058758,0.122518,0.017993,0.132204
0.160000,704.712595,17089.366534,4.058859,0.118651,0.017965,0.129916
0.161000,702.659330,17131.084191,4.058961,0.114674,0.017945,0.127618
0.162000,701.537308,17151.681417,4.059062,0.110592,0.017935,0.125315
0.163000,701.335215,17150.686725,4.059164,0.106409,0.017937,0.123010
0.164000,702.028519,17127.743719,4.059266,0.102131,0.017954,0.120707
0.165000,703.579103,17084.351166,4.059367,0.097762,0.017989,0.118410
0.166000,705.935492,17020.944499,4.059468,0.093307,0.018043,0.116122
0.167000,709.034023,16940.559899,4.059569,0.088771,0.018121,0.113846
0.168000,712.800596,16845.513271,4.059669,0.084160,0.018224,0.111585
0.169000,717.151386,16738.470881,4.059768,0.079478,0.018355,0.109343
0.170000,721.993632,16620.663615,4.059867,0.074730,0.018518,0.107122
0.171000,727.227269,16497.327277,4.059965,0.069922,0.018715,0.104925
0.172000,732.745970,16371.622181,4.060062,0.065057,0.018949,0.102754
0.173000,738.440334,16246.898561,4.060158,0.060141,0.019223,0.100613
0.174000,744.199702,16124.625651,4.060254,0.055178,0.019540,0.098501
0.175000,749.912170,16008.780356,4.060349,0.050171,0.019902,0.096423
0.176000,755.467780,15902.349323,4.060443,0.045126,0.020313,0.094378
0.177000,760.761120,15808.569618,4.060537,0.040045,0.020775,0.092370
0.178000,765.692752,15730.087116,4.060631,0.034933,0.021290,0.090397
0.179000,770.170290,15669.066508,4.060724,0.029792,0.021862,0.088462
0.180000,774.110133,15623.000693,4.060816,0.024625,0.022493,0.086566
0.181000,777.438544,15594.937063,4.060909,0.019433,0.023185,0.084707
0.182000,780.093301,15590.903836,4.061001,0.014221,0.023940,0.082888
0.183000,782.026816,15609.865879,4.061094,0.008989,0.024761,0.081106
0.184000,783.205114,15651.793315,4.061187,0.003739,0.025650,0.079363
0.185000,783.606915,15717.942971,4.061280,-0.001527,0.026610,0.077656
0.186000,783.224695,15808.140849,4.061374,-0.006808,0.027641,0.075987
0.187000,782.064630,15917.391106,4.061469,-0.012101,0.028746,0.074352
0.188000,780.146348,16047.511325,4.061564,-0.017407,0.029926,0.072751
0.189000,777.502635,16200.080064,4.061660,-0.022724,0.031184,0.071182
0.190000,774.178663,16372.705571,4.061757,-0.028053,0.032519,0.069643
0.191000,770.230362,16562.166100,4.061856,-0.033392,0.033934,0.068132
0.192000,765.723200,16763.378949,4.061955,-0.038742,0.035428,0.066646
0.193000,760.730885,16973.435893,4.062056,-0.044103,0.037004,0.065183
0.194000,755.334104,17190.353852,4.062158,-0.049475,0.038662,0.063740
0.195000,749.619131,17412.022567,4.062262,-0.054860,0.040402,0.062314
0.196000,743.675874,17639.835312,4.062366,-0.060258,0.042225,0.060902
0.197000,737.595381,17870.022421,4.062472,-0.065670,0.044131,0.059501
0.198000,731.467839,18096.843807,4.062580,-0.071096,0.046121,0.058106
0.199000,725.381657,18317.220000,4.062689,-0.076539,0.048194,0.056715
0.200000,719.423105,18530.616507,4.062799,-0.081998,0.050350,0.055324
0.201000,713.674477,18733.642320,4.062910,-0.087475,0.052589,0.053930
0.202000,708.213073,18921.133757,4.063022,-0.092970,0.054911,0.052529
0.203000,703.111754,19089.854993,4.063136,-0.098485,0.057314,0.051118
0.204000,698.437452,19241.215167,4.063250,-0.104018,0.059799,0.049694
0.205000,694.250603,19371.674577,4.063365,-0.109571,0.062363,0.048254
0.206000,690.605404,19479.229659,4.063481,-0.115143,0.065006,0.046796
0.207000,687.550301,19564.311630,4.063597,-0.120732,0.067727,0.045317
0.208000,685.128462,19626.984918,4.063714,-0.126338,0.070522,0.043816
0.209000,683.376863,19665.027185,4.063830,-0.131957,0.073391,0.042291
0.210000,682.325169,19675.454913,4.063947,-0.137586,0.076331,0.040742
0.211000,681.995099,19659.149951,4.064064,-0.143223,0.079339,0.039169
0.212000,682.399433,19615.888999,4.064181,-0.148861,0.082412,0.037574
0.213000,683.540894,19546.429430,4.064297,-0.154495,0.085548,0.035957
0.214000,685.411357,19446.752404,4.064412,-0.160118,0.088741,0.034322
0.215000,687.991222,19323.076675,4.064527,-0.165722,0.091989,0.032672
0.216000,691.248661,19176.096533,4.064641,-0.171297,0.095286,0.031012
0.217000,695.140001,19007.467711,4.064754,-0.176833,0.098629,0.029349
0.218000,699.609612,18816.173406,4.064866,-0.182317,0.102011,0.027688
0.219000,704.590182,18605.256088,4.064976,-0.187737,0.105427,0.026040
0.220000,710.004429,18376.779395,4.065086,-0.193076,0.108871,0.024413
0.221000,715.765843,18133.901303,4.065193,-0.198320,0.112337,0.022818
0.222000,721.781047,17877.661348,4.065300,-0.203451,0.115819,0.021267
0.223000,727.952377,17613.524563,4.065404,-0.208449,0.119308,0.019774
0.224000,734.179357,17342.536665,4.065507,-0.213295,0.122798,0.018352
0.225000,740.362203,17070.490993,4.065609,-0.217969,0.126280,0.017017
0.226000,746.405125,16799.411256,4.065709,-0.222447,0.129748,0.015784
0.227000,752.218144,16529.990181,4.065807,-0.226708,0.133192,0.014670
0.228000,757.719070,16264.981674,4.065904,-0.230727,0.136604,0.013692
0.229000,762.834779,16007.159719,4.065999,-0.234482,0.139976,0.012866
0.230000,767.503298,15758.823735,4.066092,-0.237949,0.143300,0.012209
0.231000,771.676344,15522.235241,4.066185,-0.241103,0.146565,0.011739
0.232000,775.319699,15295.750042,4.066276,-0.243921,0.149765,0.011470
0.233000,778.412353,15082.980642,4.066365,-0.246380,0.152888,0.011419
0.234000,780.946825,14885.515795,4.066454,-0.248459,0.155928,0.011600
0.235000,782.928404,14702.033578,4.066541,-0.250136,0.158874,0.012024
0.236000,784.373143,14529.587822,4.066628,-0.251393,0.161719,0.012702
0.237000,785.307244,14368.936152,4.066713,-0.252212,0.164453,0.013642
0.238000,785.766721,14219.946982,4.066797,-0.252577,0.167067,0.014851
0.239000,785.795226,14083.890648,4.066881,-0.252476,0.169553,0.016333
0.240000,785.442658,13956.496307,4.066964,-0.251897,0.171903,0.018086
0.241000,784.763920,13837.212238,4.067046,-0.250833,0.174108,0.020110
0.242000,783.816540,13727.939676,4.067128,-0.249279,0.176160,0.022399
0.243000,782.658789,13625.500671,4.067209,-0.247232,0.178050,0.024943
0.244000,781.348202,13529.516223,4.067290,-0.244692,0.179770,0.027731
0.245000,779.940546,13440.109441,4.067369,-0.241663,0.181313,0.030749
0.246000,778.488225,13358.175628,4.067449,-0.238150,0.182670,0.033978
0.247000,777.038810,13283.914307,4.067528,-0.234162,0.183835,0.037398
0.248000,775.634256,13215.522073,4.067606,-0.229710,0.184799,0.040987
0.249000,774.310168,13149.813702,4.067685,-0.224807,0.185556,0.044718
0.250000,773.095297,13087.240754,4.067762,-0.219468,0.186097,0.048565
0.251000,772.012257,13027.980179,4.067840,-0.213709,0.186417,0.052499
0.252000,771.077023,12971.141983,4.067917,-0.207550,0.186508,0.056491
0.253000,770.297091,12914.906127,4.067994,-0.201009,0.186363,0.060508
0.254000,769.671575,12859.283998,4.068070,-0.194107,0.185977,0.064521
0.255000,769.192527,12803.926103,4.068146,-0.186865,0.185343,0.068497
0.256000,768.846747,12750.029565,4.068222,-0.179306,0.184455,0.072404
0.257000,768.616794,12696.015909,4.068298,-0.171451,0.183307,0.076211
0.258000,768.482082,12639.362808,4.068373,-0.163323,0.181894,0.079887
0.259000,768.420948,12582.959483,4.068448,-0.154944,0.180212,0.083403
0.260000,768.412491,12524.526262,4.068522,-0.146338,0.178256,0.086730
0.261000,768.437732,12467.642596,4.068596,-0.137526,0.176021,0.089841
0.262000,768.479912,12409.270100,4.068670,-0.128529,0.173507,0.092711
0.263000,768.525960,12346.173479,4.068744,-0.119370,0.170709,0.095316
0.264000,768.567881,12280.849456,4.068817,-0.110068,0.167627,0.097634
0.265000,768.603350,12214.236707,4.068889,-0.100644,0.164261,0.099646
0.266000,768.635612,12142.633053,4.068962,-0.091115,0.160609,0.101334
0.267000,768.671558,12061.765769,4.069033,-0.081500,0.156673,0.102683
0.268000,768.721736,11976.274147,4.069105,-0.071816,0.152456,0.103681
0.269000,768.799986,11883.293364,4.069175,-0.062080,0.147959,0.104317
0.270000,768.922323,11785.631685,4.069245,-0.052306,0.143188,0.104584
0.271000,769.105035,11682.622478,4.069315,-0.042511,0.138147,0.104476
0.272000,769.362100,11573.526760,4.069384,-0.032707,0.132842,0.103990
0.273000,769.704337,11460.627828,4.069452,-0.022907,0.127280,0.103126
0.274000,770.139347,11345.683321,4.069519,-0.013125,0.121470,0.101884
0.275000,770.670021,11230.160772,4.069586,-0.003371,0.115420,0.100270
0.276000,771.293041,11114.036551,4.069652,0.006342,0.109140,0.098290
0.277000,771.999215,10998.596434,4.069718,0.016005,0.102641,0.095951
0.278000,772.773717,10888.078206,4.069783,0.025607,0.095935,0.093264
0.279000,773.596977,10784.356816,4.069847,0.035140,0.089034,0.090240
0.280000,774.444899,10690.764129,4.069910,0.044593,0.081952,0.086892
0.281000,775.288944,10609.107525,4.069973,0.053958,0.074702,0.083235
0.282000,776.097547,10541.679471,4.070036,0.063228,0.067298,0.079285
0.283000,776.838206,10487.874408,4.070099,0.072392,0.059755,0.075059
0.284000,777.479457,10450.948168,4.070161,0.081445,0.052089,0.070573
0.285000,777.992225,10432.289479,4.070223,0.090377,0.044313,0.065847
