time,temperature,pressure,lattice,MSD
0.000000,5.792162,14607.146117,4.030091,0.194009,0.075277,-0.062000
0.001000,48.731071,14358.873440,4.030180,0.193202,0.075246,-0.061416
0.002000,105.766654,13981.915700,4.030266,0.191924,0.075195,-0.060495
0.003000,173.667336,13500.546817,4.030350,0.190229,0.075127,-0.059278
0.004000,249.816540,12933.576119,4.030430,0.188149,0.075042,-0.057790
0.005000,331.842696,12298.390171,4.030507,0.185707,0.074939,-0.056052
0.006000,417.556734,11611.069903,4.030579,0.182925,0.074820,-0.054082
0.007000,504.957807,10886.522456,4.030646,0.179822,0.074683,-0.051898
0.008000,592.251502,10138.939478,4.030709,0.176417,0.074528,-0.049518
0.009000,677.864468,9381.786604,4.030767,0.172729,0.074352,-0.046957
0.010000,760.449682,8626.035903,4.030821,0.168776,0.074155,-0.044232
0.011000,838.882462,7882.020460,4.030870,0.164575,0.073935,-0.041360
0.012000,912.249404,7159.788433,4.030914,0.160147,0.073690,-0.038355
0.013000,979.833352,6467.509636,4.030954,0.155509,0.073417,-0.035234
0.014000,1041.097227,5812.212472,4.030990,0.150679,0.073113,-0.032011
0.015000,1095.666784,5200.221899,4.031022,0.145676,0.072776,-0.028701
0.016000,1143.312729,4637.368938,4.031051,0.140520,0.072403,-0.025318
0.017000,1183.930550,4128.132335,4.031077,0.135229,0.071990,-0.021875
0.018000,1217.521812,3674.738584,4.031099,0.129821,0.071533,-0.018386
0.019000,1244.177596,3280.067200,4.031120,0.124315,0.071029,-0.014864
0.020000,1264.062122,2944.756177,4.031138,0.118729,0.070473,-0.011320
0.021000,1277.397172,2670.511997,4.031155,0.113082,0.069861,-0.007765
0.022000,1284.450073,2457.809571,4.031170,0.107392,0.069189,-0.004211
0.023000,1285.525751,2305.843899,4.031184,0.101677,0.068452,-0.000667
0.024000,1280.958631,2212.470283,4.031198,0.095954,0.067646,0.002856
0.025000,1271.105743,2176.165521,4.031211,0.090241,0.066766,0.006348
0.026000,1256.347378,2194.374633,4.031225,0.084554,0.065808,0.009800
0.027000,1237.085756,2264.290668,4.031239,0.078910,0.064766,0.013205
0.028000,1213.739100,2381.754212,4.031254,0.073326,0.063638,0.016552
0.029000,1186.741097,2544.283399,4.031270,0.067816,0.062419,0.019835
0.030000,1156.540389,2747.442575,4.031287,0.062397,0.061104,0.023047
0.031000,1123.598392,2987.223972,4.031305,0.057083,0.059690,0.026179
0.032000,1088.388331,3259.414380,4.031325,0.051888,0.058173,0.029226
0.033000,1051.392864,3559.497632,4.031347,0.046826,0.056550,0.032180
0.034000,1013.100423,3883.301981,4.031372,0.041910,0.054818,0.035037
0.035000,974.001420,4225.894898,4.031398,0.037152,0.052974,0.037789
0.036000,934.583500,4582.874249,4.031426,0.032563,0.051015,0.040431
0.037000,895.327499,4948.917325,4.031457,0.028155,0.048940,0.042957
0.038000,856.702805,5318.964132,4.031490,0.023937,0.046746,0.045362
0.039000,819.161594,5688.220355,4.031525,0.019920,0.044432,0.047642
0.040000,783.132791,6051.457577,4.031563,0.016111,0.041997,0.049790
0.041000,749.016176,6404.018468,4.031602,0.012519,0.039441,0.051804
0.042000,717.176578,6741.912698,4.031644,0.009151,0.036762,0.053678
0.043000,687.938086,7061.810272,4.031688,0.006012,0.033962,0.055408
0.044000,661.579257,7360.696869,4.031734,0.003109,0.031041,0.056990
0.045000,638.328978,7634.590401,4.031781,0.000444,0.028000,0.058422
0.046000,618.361498,7881.503704,4.031830,-0.001978,0.024840,0.059700
0.047000,601.793782,8099.374504,4.031880,-0.004155,0.021563,0.060822
0.048000,588.685108,8285.844514,4.031932,-0.006086,0.018172,0.061784
0.049000,579.036610,8440.676209,4.031984,-0.007772,0.014669,0.062586
0.050000,572.791882,8563.917902,4.032037,-0.009214,0.011059,0.063227
0.051000,569.838933,8655.892024,4.032091,-0.010414,0.007345,0.063705
0.052000,570.013377,8716.407982,4.032145,-0.011376,0.003533,0.064021
0.053000,573.102579,8747.083925,4.032199,-0.012105,-0.000374,0.064175
0.054000,578.851506,8749.794929,4.032253,-0.012608,-0.004369,0.064169
0.055000,586.970192,8726.477139,4.032308,-0.012892,-0.008445,0.064004
0.056000,597.141284,8679.392724,4.032361,-0.012967,-0.012597,0.063684
0.057000,609.027555,8611.366474,4.032415,-0.012841,-0.016817,0.063213
0.058000,622.279926,8525.027036,4.032468,-0.012528,-0.021098,0.062593
0.059000,636.544997,8423.842279,4.032520,-0.012038,-0.025431,0.061831
0.060000,651.472924,8310.510925,4.032572,-0.011386,-0.029809,0.060931
0.061000,666.724369,8187.755484,4.032622,-0.010586,-0.034224,0.059900
0.062000,681.975452,8059.374761,4.032672,-0.009651,-0.038667,0.058745
0.063000,696.923401,7928.948779,4.032722,-0.008597,-0.043129,0.057471
0.064000,711.290815,7798.190529,4.032770,-0.007439,-0.047603,0.056087
0.065000,724.828379,7670.082752,4.032818,-0.006192,-0.052080,0.054599
0.066000,737.317971,7546.927255,4.032864,-0.004872,-0.056551,0.053015
0.067000,748.574150,7431.516816,4.032911,-0.003495,-0.061008,0.051343
0.068000,758.443646,7325.944425,4.032956,-0.002074,-0.065441,0.049590
0.069000,766.805146,7232.192885,4.033001,-0.000625,-0.069843,0.047763
0.070000,773.569123,7151.481807,4.033045,0.000839,-0.074205,0.045870
0.071000,778.677870,7085.419116,4.033089,0.002305,-0.078519,0.043918
0.072000,782.103546,7033.587488,4.033133,0.003759,-0.082775,0.041914
0.073000,783.846566,6997.220981,4.033176,0.005191,-0.086964,0.039864
0.074000,783.934379,6975.650206,4.033220,0.006590,-0.091080,0.037774
0.075000,782.418734,6969.566912,4.033263,0.007946,-0.095111,0.035651
0.076000,779.373366,6979.021731,4.033306,0.009251,-0.099051,0.033500
0.077000,774.892399,7003.657079,4.033350,0.010496,-0.102889,0.031325
0.078000,769.088925,7041.998479,4.033393,0.011676,-0.106617,0.029132
0.079000,762.091945,7093.177120,4.033437,0.012785,-0.110227,0.026925
0.080000,754.045097,7155.817877,4.033482,0.013819,-0.113708,0.024709
0.081000,745.106138,7228.581635,4.033527,0.014776,-0.117053,0.022486
0.082000,735.443077,7310.356638,4.033572,0.015653,-0.120251,0.020261
0.083000,725.230778,7400.055397,4.033618,0.016450,-0.123294,0.018037
0.084000,714.649142,7495.388616,4.033664,0.017167,-0.126173,0.015816
0.085000,703.879042,7595.085123,4.033712,0.017807,-0.128878,0.013601
0.086000,693.099155,7697.774729,4.033759,0.018372,-0.131400,0.011395
0.087000,682.484299,7801.879984,4.033808,0.018865,-0.133730,0.009200
0.088000,672.201904,7905.117949,4.033857,0.019290,-0.135860,0.007018
0.089000,662.408739,8006.450194,4.033906,0.019654,-0.137780,0.004853
0.090000,653.249002,8104.641023,4.033957,0.019962,-0.139482,0.002705
0.091000,644.852164,8198.648405,4.034008,0.020220,-0.140957,0.000578
0.092000,637.332401,8286.532702,4.034059,0.020435,-0.142198,-0.001526
0.093000,630.786694,8367.352179,4.034111,0.020615,-0.143197,-0.003605
0.094000,625.292891,8439.883852,4.034163,0.020766,-0.143946,-0.005657
0.095000,620.911758,8503.262104,4.034216,0.020895,-0.144439,-0.007679
0.096000,617.687684,8557.445430,4.034269,0.021010,-0.144670,-0.009669
0.097000,615.649062,8602.019306,4.034323,0.021118,-0.144634,-0.011624
0.098000,614.810505,8636.407529,4.034376,0.021225,-0.144327,-0.013543
0.099000,615.173631,8660.586757,4.034430,0.021336,-0.143744,-0.015423
0.100000,616.728071,8674.206917,4.034484,0.021458,-0.142883,-0.017261
0.101000,619.453156,8676.810655,4.034538,0.021593,-0.141744,-0.019055
0.102000,623.318873,8667.884183,4.034592,0.021744,-0.140325,-0.020804
0.103000,628.286897,8648.039430,4.034645,0.021915,-0.138627,-0.022503
0.104000,634.311026,8617.308008,4.034699,0.022107,-0.136654,-0.024151
0.105000,641.336926,8575.541918,4.034752,0.022317,-0.134408,-0.025746
0.106000,649.302488,8522.007235,4.034805,0.022546,-0.131895,-0.027286
0.107000,658.138503,8458.092448,4.034857,0.022789,-0.129121,-0.028768
0.108000,667.768692,8384.057398,4.034910,0.023043,-0.126094,-0.030189
0.109000,678.110195,8299.231080,4.034961,0.023301,-0.122824,-0.031549
0.110000,689.074501,8204.682003,4.035012,0.023556,-0.119320,-0.032845
0.111000,700.567054,8101.287867,4.035062,0.023800,-0.115594,-0.034075
0.112000,712.487169,7990.453159,4.035112,0.024022,-0.111660,-0.035238
0.113000,724.729406,7872.820501,4.035161,0.024211,-0.107531,-0.036333
0.114000,737.184586,7749.278645,4.035209,0.024355,-0.103222,-0.037358
0.115000,749.739035,7620.506710,4.035256,0.024440,-0.098751,-0.038313
0.116000,762.275680,7488.230144,4.035303,0.024452,-0.094132,-0.039198
0.117000,774.676228,7353.753772,4.035348,0.024376,-0.089383,-0.040012
0.118000,786.821313,7218.934396,4.035393,0.024197,-0.084523,-0.040756
0.119000,798.591114,7084.813012,4.035437,0.023898,-0.079569,-0.041432
0.120000,809.866475,6952.977567,4.035480,0.023462,-0.074540,-0.042041
0.121000,820.530825,6824.454576,4.035523,0.022875,-0.069454,-0.042586
0.122000,830.472768,6700.582016,4.035564,0.022119,-0.064329,-0.043068
0.123000,839.587023,6583.353329,4.035605,0.021178,-0.059183,-0.043493
0.124000,847.775455,6473.826697,4.035645,0.020038,-0.054033,-0.043864
0.125000,854.950637,6372.421948,4.035685,0.018683,-0.048898,-0.044187
0.126000,861.036662,6280.454254,4.035724,0.017099,-0.043793,-0.044467
0.127000,865.969419,6199.042795,4.035762,0.015275,-0.038734,-0.044711
0.128000,869.700116,6128.350104,4.035801,0.013197,-0.033737,-0.044926
0.129000,872.195498,6069.763121,4.035838,0.010856,-0.028814,-0.045121
0.130000,873.437441,6022.503322,4.035876,0.008243,-0.023978,-0.045304
0.131000,873.425682,5986.820468,4.035913,0.005351,-0.019242,-0.045484
0.132000,872.179114,5963.953207,4.035950,0.002173,-0.014616,-0.045671
0.133000,869.735201,5953.756322,4.035987,-0.001295,-0.010109,-0.045875
0.134000,866.148933,5954.980419,4.036024,-0.005056,-0.005728,-0.046107
0.135000,861.492829,5967.763195,4.036061,-0.009110,-0.001481,-0.046377
0.136000,855.853983,5992.261179,4.036098,-0.013456,0.002627,-0.046697
0.137000,849.332552,6027.147605,4.036135,-0.018092,0.006593,-0.047076
0.138000,842.042463,6071.830240,4.036173,-0.023013,0.010413,-0.047525
0.139000,834.108101,6125.030673,4.036211,-0.028215,0.014087,-0.048056
0.140000,825.661982,6185.556422,4.036250,-0.033689,0.017613,-0.048678
0.141000,816.842896,6252.434195,4.036288,-0.039427,0.020994,-0.049401
0.142000,807.794234,6324.725994,4.036328,-0.045419,0.024229,-0.050235
0.143000,798.660972,6401.249559,4.036367,-0.051653,0.027322,-0.051187
0.144000,789.586137,6479.808852,4.036408,-0.058117,0.030276,-0.052268
0.145000,780.709573,6559.578947,4.036448,-0.064798,0.033095,-0.053483
0.146000,772.166193,6638.864540,4.036490,-0.071681,0.035784,-0.054841
0.147000,764.082652,6717.089730,4.036531,-0.078749,0.038348,-0.056346
0.148000,756.573198,6793.472620,4.036574,-0.085987,0.040793,-0.058007
0.149000,749.737184,6865.971455,4.036616,-0.093377,0.043122,-0.059826
0.150000,743.657200,6933.858686,4.036659,-0.100902,0.045343,-0.061808
0.151000,738.397554,6995.595622,4.036703,-0.108542,0.047460,-0.063958
0.152000,734.005062,7051.120916,4.036747,-0.116279,0.049478,-0.066277
0.153000,730.508260,7099.921464,4.036791,-0.124092,0.051403,-0.068769
0.154000,727.916226,7142.463372,4.036835,-0.131962,0.053238,-0.071436
0.155000,726.219717,7178.386809,4.036880,-0.139869,0.054987,-0.074277
0.156000,725.392281,7207.395332,4.036924,-0.147792,0.056654,-0.077294
0.157000,725.392267,7230.225979,4.036969,-0.155710,0.058240,-0.080488
0.158000,726.165119,7246.812752,4.037014,-0.163603,0.059749,-0.083856
0.159000,727.645449,7257.428267,4.037059,-0.171449,0.061180,-0.087400
0.160000,729.758420,7262.688168,4.037104,-0.179228,0.062534,-0.091117
0.161000,732.422046,7262.693703,4.037150,-0.186919,0.063811,-0.095006
0.162000,735.549655,7258.454735,4.037195,-0.194502,0.065009,-0.099065
0.163000,739.052298,7250.182961,4.037240,-0.201956,0.066127,-0.103292
0.164000,742.840247,7239.008061,4.037285,-0.209261,0.067161,-0.107684
0.165000,746.823713,7225.143286,4.037330,-0.216396,0.068109,-0.112238
0.166000,750.915700,7208.258946,4.037374,-0.223344,0.068966,-0.116952
0.167000,755.033726,7189.352160,4.037419,-0.230082,0.069728,-0.121821
0.168000,759.099101,7169.712875,4.037464,-0.236594,0.070390,-0.126842
0.169000,763.036777,7149.213135,4.037508,-0.242858,0.070947,-0.132012
0.170000,766.776592,7129.340679,4.037552,-0.248858,0.071392,-0.137325
0.171000,770.256007,7110.663115,4.037596,-0.254574,0.071722,-0.142777
0.172000,773.420856,7094.380416,4.037641,-0.259988,0.071929,-0.148363
0.173000,776.223327,7080.045465,4.037685,-0.265082,0.072008,-0.154078
0.174000,778.622387,7068.495769,4.037728,-0.269840,0.071953,-0.159915
0.175000,780.583820,7060.081786,4.037772,-0.274242,0.071759,-0.165869
0.176000,782.080839,7055.647858,4.037816,-0.278274,0.071421,-0.171931
0.177000,783.093553,7054.555871,4.037860,-0.281917,0.070933,-0.178095
0.178000,783.607943,7057.420451,4.037904,-0.285156,0.070290,-0.184353
0.179000,783.616810,7064.122722,4.037948,-0.287975,0.069490,-0.190695
0.180000,783.120254,7075.442620,4.037992,-0.290357,0.068527,-0.197113
0.181000,782.125618,7091.367624,4.038036,-0.292288,0.067398,-0.203596
0.182000,780.646239,7111.964135,4.038080,-0.293753,0.066102,-0.210134
0.183000,778.700320,7137.232346,4.038124,-0.294738,0.064635,-0.216716
0.184000,776.311742,7166.684391,4.038169,-0.295229,0.062996,-0.223329
0.185000,773.510700,7199.865651,4.038213,-0.295212,0.061185,-0.229961
0.186000,770.331974,7235.823609,4.038258,-0.294676,0.059200,-0.236600
0.187000,766.815119,7273.883916,4.038304,-0.293608,0.057042,-0.243231
0.188000,763.006248,7313.026470,4.038349,-0.291996,0.054712,-0.249841
0.189000,758.956603,7353.682484,4.038395,-0.289832,0.052210,-0.256415
0.190000,754.720455,7394.620599,4.038441,-0.287105,0.049539,-0.262938
0.191000,750.355139,7436.167734,4.038487,-0.283808,0.046702,-0.269396
0.192000,745.920373,7477.980082,4.038533,-0.279933,0.043699,-0.275774
0.193000,741.477209,7518.245682,4.038580,-0.275475,0.040536,-0.282056
0.194000,737.087537,7557.238596,4.038627,-0.270430,0.037216,-0.288227
0.195000,732.813323,7594.395468,4.038674,-0.264794,0.033742,-0.294273
0.196000,728.715299,7628.816189,4.038722,-0.258568,0.030120,-0.300179
0.197000,724.851741,7659.165535,4.038769,-0.251752,0.026353,-0.305929
0.198000,721.276364,7685.162593,4.038817,-0.244347,0.022448,-0.311511
0.199000,718.035863,7706.721725,4.038865,-0.236360,0.018408,-0.316910
0.200000,715.169693,7723.671893,4.038913,-0.227797,0.014241,-0.322115
0.201000,712.710435,7735.296829,4.038961,-0.218666,0.009951,-0.327112
0.202000,710.682833,7741.415175,4.039009,-0.208979,0.005545,-0.331891
0.203000,709.103255,7741.983730,4.039057,-0.198750,0.001028,-0.336442
0.204000,707.980295,7735.919866,4.039105,-0.187993,-0.003592,-0.340755
0.205000,707.313714,7724.069420,4.039153,-0.176728,-0.008309,-0.344822
0.206000,707.095306,7706.596287,4.039201,-0.164974,-0.013117,-0.348636
0.207000,707.310278,7683.829746,4.039249,-0.152753,-0.018009,-0.352190
0.208000,707.936784,7655.672611,4.039297,-0.140089,-0.022977,-0.355479
0.209000,708.946923,7622.030916,4.039344,-0.127010,-0.028014,-0.358499
0.210000,710.309451,7582.821839,4.039391,-0.113541,-0.033114,-0.361247
0.211000,711.990712,7538.588882,4.039438,-0.099713,-0.038268,-0.363720
0.212000,713.955166,7490.076014,4.039484,-0.085556,-0.043470,-0.365918
0.213000,716.166786,7438.165971,4.039531,-0.071104,-0.048711,-0.367841
0.214000,718.589609,7383.675646,4.039577,-0.056389,-0.053985,-0.369490
0.215000,721.189014,7327.320351,4.039622,-0.041446,-0.059282,-0.370866
0.216000,723.931986,7269.180640,4.039667,-0.026310,-0.064596,-0.371972
0.217000,726.788167,7209.393341,4.039712,-0.011018,-0.069918,-0.372813
0.218000,729.730667,7148.251332,4.039757,0.004394,-0.075241,-0.373391
0.219000,732.735836,7086.516528,4.039801,0.019887,-0.080555,-0.373714
0.220000,735.783110,7025.088352,4.039844,0.035423,-0.085853,-0.373785
0.221000,738.854857,6964.525489,4.039888,0.050964,-0.091127,-0.373613
0.222000,741.935376,6904.868679,4.039930,0.066471,-0.096366,-0.373203
0.223000,745.009922,6846.000722,4.039973,0.081905,-0.101563,-0.372564
0.224000,748.064792,6788.665917,4.040015,0.097227,-0.106709,-0.371703
0.225000,751.087231,6733.054175,4.040057,0.112399,-0.111793,-0.370629
0.226000,754.064125,6679.857143,4.040099,0.127382,-0.116806,-0.369350
0.227000,756.980542,6628.963414,4.040140,0.142139,-0.121739,-0.367876
0.228000,759.822451,6579.483119,4.040181,0.156631,-0.126579,-0.366215
0.229000,762.576686,6532.602697,4.040221,0.170824,-0.131317,-0.364376
0.230000,765.229496,6488.889944,4.040262,0.184681,-0.135942,-0.362368
0.231000,767.766389,6448.877949,4.040302,0.198169,-0.140441,-0.360200
0.232000,770.172422,6412.802801,4.040342,0.211255,-0.144802,-0.357881
0.233000,772.434298,6381.138642,4.040381,0.223906,-0.149014,-0.355419
0.234000,774.539299,6354.241511,4.040421,0.236094,-0.153064,-0.352821
0.235000,776.474526,6332.627009,4.040460,0.247790,-0.156940,-0.350097
0.236000,778.228212,6316.279654,4.040499,0.258967,-0.160628,-0.347252
0.237000,779.789679,6305.341047,4.040539,0.269602,-0.164116,-0.344293
0.238000,781.148230,6298.369775,4.040578,0.279672,-0.167392,-0.341226
0.239000,782.293692,6296.561167,4.040617,0.289158,-0.170444,-0.338056
0.240000,783.217451,6299.402413,4.040656,0.298042,-0.173259,-0.334787
0.241000,783.912230,6306.388537,4.040695,0.306309,-0.175827,-0.331425
0.242000,784.371770,6318.084170,4.040735,0.313947,-0.178136,-0.327970
0.243000,784.591121,6335.011919,4.040774,0.320948,-0.180179,-0.324427
0.244000,784.567334,6357.058190,4.040813,0.327304,-0.181947,-0.320796
0.245000,784.300745,6383.972516,4.040853,0.333011,-0.183431,-0.317078
0.246000,783.795775,6414.545432,4.040893,0.338069,-0.184628,-0.313275
0.247000,783.060566,6448.254093,4.040933,0.342480,-0.185532,-0.309385
0.248000,782.107768,6483.952920,4.040973,0.346248,-0.186141,-0.305408
0.249000,780.953871,6522.295286,4.041014,0.349380,-0.186454,-0.301343
0.250000,779.618616,6563.579490,4.041055,0.351885,-0.186470,-0.297187
0.251000,778.126212,6607.128240,4.041096,0.353776,-0.186192,-0.292939
0.252000,776.505654,6652.128265,4.041137,0.355068,-0.185623,-0.288597
0.253000,774.789851,6697.771902,4.041179,0.355775,-0.184767,-0.284158
0.254000,773.014456,6743.320963,4.041221,0.355916,-0.183631,-0.279619
0.255000,771.217781,6788.298570,4.041263,0.355511,-0.182222,-0.274978
0.256000,769.440279,6832.568684,4.041306,0.354580,-0.180549,-0.270232
0.257000,767.723865,6875.584371,4.041348,0.353147,-0.178619,-0.265378
0.258000,766.110583,6917.087363,4.041391,0.351233,-0.176444,-0.260415
0.259000,764.641314,6957.035432,4.041435,0.348864,-0.174033,-0.255339
0.260000,763.354115,6993.526574,4.041478,0.346062,-0.171399,-0.250149
0.261000,762.282930,7027.114543,4.041522,0.342853,-0.168552,-0.244843
0.262000,761.458219,7057.292732,4.041566,0.339261,-0.165503,-0.239421
0.263000,760.906922,7082.440074,4.041610,0.335312,-0.162266,-0.233880
0.264000,760.649924,7102.239341,4.041654,0.331030,-0.158852,-0.228221
0.265000,760.700508,7117.383974,4.041698,0.326438,-0.155272,-0.222443
0.266000,761.065576,7127.141201,4.041742,0.321562,-0.151538,-0.216548
0.267000,761.746125,7131.663366,4.041787,0.316423,-0.147663,-0.210534
0.268000,762.736702,7130.750476,4.041831,0.311045,-0.143657,-0.204405
0.269000,764.024380,7124.566351,4.041875,0.305449,-0.139531,-0.198162
0.270000,765.588895,7113.343428,4.041920,0.299656,-0.135298,-0.191807
0.271000,767.403038,7096.446823,4.041964,0.293686,-0.130966,-0.185343
0.272000,769.433119,7074.621883,4.042008,0.287558,-0.126548,-0.178774
0.273000,771.640610,7048.124272,4.042052,0.281291,-0.122052,-0.172103
0.274000,773.982127,7017.549472,4.042095,0.274901,-0.117490,-0.165335
0.275000,776.409018,6982.786264,4.042139,0.268406,-0.112870,-0.158474
0.276000,778.869615,6944.452333,4.042182,0.261819,-0.108202,-0.151526
0.277000,781.310562,6903.301728,4.042225,0.255155,-0.103496,-0.144496
0.278000,783.676876,6859.814917,4.042267,0.248427,-0.098761,-0.137391
0.279000,785.913889,6814.406747,4.042310,0.241647,-0.094005,-0.130217
0.280000,787.969618,6766.896574,4.042352,0.234826,-0.089237,-0.122981
0.281000,789.795349,6717.814481,4.042394,0.227974,-0.084468,-0.115691
0.282000,791.345972,6668.852777,4.042435,0.221099,-0.079704,-0.108354
0.283000,792.582257,6621.147508,4.042476,0.214210,-0.074955,-0.100978
0.284000,793.472950,6575.819363,4.042517,0.207314,-0.070231,-0.093572
